frequency,e',e''
1000000000,26.8714,16.4885
1010000000,26.722,16.5447
1020000000,26.5245,16.5465
1030000000,26.4134,16.6062
1040000000,26.2971,16.5936
1050000000,26.0801,16.6346
1060000000,25.9598,16.6512
1070000000,25.8533,16.6828
1080000000,25.6074,16.6614
1090000000,25.4616,16.6547
1100000000,25.3556,16.6826
1110000000,25.1774,16.6986
1120000000,25.0143,16.6626
1130000000,24.9296,16.7027
1140000000,24.7592,16.6934
1150000000,24.6674,16.716
1160000000,24.4957,16.7073
1170000000,24.3363,16.6916
1180000000,24.1963,16.6737
1190000000,24.0588,16.705
1200000000,23.8895,16.6555
1210000000,23.7573,16.6579
1220000000,23.6241,16.6247
1230000000,23.4672,16.6256
1240000000,23.4253,16.6303
1250000000,23.2775,16.5733
1260000000,23.1672,16.6082
1270000000,23.0977,16.6105
1280000000,22.9667,16.5586
1290000000,22.8005,16.5882
1300000000,22.7186,16.625
1310000000,22.5699,16.5678
1320000000,22.4346,16.6199
1330000000,22.3208,16.5899
1340000000,22.1554,16.5346
1350000000,22.0485,16.5365
1360000000,21.964,16.5372
1370000000,21.8283,16.4814
1380000000,21.6839,16.4663
1390000000,21.5418,16.4178
1400000000,21.5005,16.3414
1410000000,21.4404,16.3427
1420000000,21.3513,16.3194
1430000000,21.2338,16.2733
1440000000,21.2181,16.2689
1450000000,21.1117,16.1998
1460000000,21.0168,16.2228
1470000000,20.9688,16.2519
1480000000,20.8209,16.2113
1490000000,20.7234,16.2153
1500000000,20.6497,16.2448
1510000000,20.4948,16.2462
1520000000,20.3975,16.2297
1530000000,20.3044,16.2097
1540000000,20.1604,16.1612
1550000000,20.0838,16.132
1560000000,19.9775,16.1114
1570000000,19.8319,16.0362
1580000000,19.7912,16.0328
1590000000,19.7115,16.0093
1600000000,19.592,15.9744
1610000000,19.5444,15.9694
1620000000,19.4702,15.9414
1630000000,19.3641,15.9358
1640000000,19.3033,15.951
1650000000,19.2133,15.9374
1660000000,19.0963,15.9246
1670000000,19.0222,15.9124
1680000000,18.933,15.8969
1690000000,18.8061,15.8597
1700000000,18.7346,15.8484
1710000000,18.6351,15.8247
1720000000,18.5498,15.8096
1730000000,18.4405,15.7855
1740000000,18.3321,15.7478
1750000000,18.2483,15.7422
1760000000,18.1728,15.6895
1770000000,18.0767,15.6777
1780000000,18.0128,15.6366
1790000000,17.9347,15.6152
1800000000,17.8592,15.5891
1810000000,17.7741,15.5697
1820000000,17.7183,15.5434
1830000000,17.6412,15.5107
1840000000,17.57,15.475
1850000000,17.4849,15.4627
1860000000,17.4131,15.4237
1870000000,17.3397,15.3782
1880000000,17.2606,15.3513
1890000000,17.184,15.3316
1900000000,17.0956,15.2902
1910000000,17.0296,15.2536
1920000000,16.9493,15.2352
1930000000,16.863,15.1902
1940000000,16.8055,15.1546
1950000000,16.7275,15.1211
1960000000,16.6498,15.0896
1970000000,16.5773,15.0375
1980000000,16.5048,15.0139
1990000000,16.4357,14.9858
2000000000,16.3815,14.9502
2010000000,16.3139,14.9247
2020000000,16.2513,14.8844
2030000000,16.1799,14.8453
2040000000,16.1155,14.801
2050000000,16.0571,14.7627
2060000000,15.9725,14.7352
2070000000,15.9019,14.7038
2080000000,15.8449,14.6735
2090000000,15.7688,14.6492
2100000000,15.7076,14.6058
2110000000,15.6551,14.5702
2120000000,15.6023,14.5669
2130000000,15.5433,14.5175
2140000000,15.4831,14.4926
2150000000,15.4235,14.4407
2160000000,15.3701,14.4334
2170000000,15.3065,14.404
2180000000,15.243,14.3819
2190000000,15.2114,14.3433
2200000000,15.1565,14.3019
2210000000,15.1079,14.2665
2220000000,15.0577,14.2363
2230000000,15.0046,14.2057
2240000000,14.9505,14.1732
2250000000,14.8906,14.1457
2260000000,14.8313,14.1061
2270000000,14.7837,14.0829
2280000000,14.7214,14.0474
2290000000,14.6872,14.0002
2300000000,14.6359,13.9699
2310000000,14.5885,13.9276
2320000000,14.5371,13.9082
2330000000,14.4978,13.8483
2340000000,14.4421,13.7929
2350000000,14.3819,13.7678
2360000000,14.3301,13.7426
2370000000,14.2823,13.7146
2380000000,14.2332,13.679
2390000000,14.1879,13.6471
2400000000,14.1298,13.5768
2410000000,14.0957,13.5342
2420000000,14.0376,13.4864
2430000000,13.9857,13.4634
2440000000,13.937,13.4489
2450000000,13.8859,13.4127
2460000000,13.8447,13.3723
2470000000,13.7946,13.3576
2480000000,13.7623,13.3118
2490000000,13.7127,13.2741
2500000000,13.68,13.2539
2510000000,13.635,13.2121
2520000000,13.5836,13.1769
2530000000,13.543,13.1611
2540000000,13.4989,13.1312
2550000000,13.4674,13.1027
2560000000,13.422,13.065
2570000000,13.3839,13.0376
2580000000,13.355,13.0141
2590000000,13.3166,12.9895
2600000000,13.2817,12.9554
2610000000,13.2412,12.9184
2620000000,13.2169,12.8956
2630000000,13.1775,12.872
2640000000,13.1501,12.8588
2650000000,13.1071,12.8193
2660000000,13.0882,12.7935
2670000000,13.0538,12.7629
2680000000,13.0238,12.7244
2690000000,12.9991,12.6941
2700000000,12.9807,12.6677
2710000000,12.9368,12.642
2720000000,12.9094,12.6127
2730000000,12.8825,12.6007
2740000000,12.8496,12.5732
2750000000,12.8166,12.5362
2760000000,12.7859,12.5123
2770000000,12.754,12.4711
2780000000,12.7196,12.4301
2790000000,12.6867,12.3976
2800000000,12.6498,12.3536
2810000000,12.6126,12.3177
2820000000,12.5835,12.2893
2830000000,12.5489,12.2486
2840000000,12.5147,12.221
2850000000,12.4793,12.1905
2860000000,12.4418,12.1532
2870000000,12.4118,12.1149
2880000000,12.3685,12.071
2890000000,12.3312,12.0384
2900000000,12.3073,12.0136
2910000000,12.2685,11.9701
2920000000,12.2343,11.9446
2930000000,12.2041,11.9269
2940000000,12.1814,11.8996
2950000000,12.1565,11.8634
2960000000,12.1154,11.8526
2970000000,12.1037,11.8243
2980000000,12.0768,11.7919
2990000000,12.0504,11.7753
3000000000,12.028,11.7489
3010000000,11.996,11.7393
3020000000,11.9697,11.7227
3030000000,11.9483,11.7134
3040000000,11.9289,11.695
3050000000,11.9083,11.6857
3060000000,11.8836,11.6561
3070000000,11.8816,11.643
3080000000,11.8641,11.6199
3090000000,11.8443,11.6042
3100000000,11.8132,11.5856
3110000000,11.7999,11.5766
3120000000,11.7902,11.562
3130000000,11.7764,11.5523
3140000000,11.7553,11.5175
3150000000,11.7345,11.5089
3160000000,11.7184,11.4931
3170000000,11.703,11.4746
3180000000,11.6815,11.4631
3190000000,11.6634,11.4356
3200000000,11.6452,11.4155
3210000000,11.624,11.3972
3220000000,11.6041,11.3721
3230000000,11.5848,11.3354
3240000000,11.5517,11.3094
3250000000,11.5323,11.2725
3260000000,11.5039,11.2444
3270000000,11.477,11.2038
3280000000,11.441,11.1745
3290000000,11.4193,11.1466
3300000000,11.3909,11.1127
3310000000,11.3664,11.0792
3320000000,11.3372,11.062
3330000000,11.3067,11.0358
3340000000,11.2817,11.0062
3350000000,11.2472,10.9603
3360000000,11.2169,10.9322
3370000000,11.1862,10.9017
3380000000,11.1556,10.8692
3390000000,11.1212,10.8592
3400000000,11.1006,10.8432
3410000000,11.0759,10.8164
3420000000,11.0417,10.8093
3430000000,11.0152,10.7947
3440000000,10.9942,10.7668
3450000000,10.9674,10.7458
3460000000,10.9398,10.7415
3470000000,10.918,10.7133
3480000000,10.9001,10.7067
3490000000,10.8745,10.7035
3500000000,10.8462,10.7045
3510000000,10.8396,10.6872
3520000000,10.8192,10.6756
3530000000,10.808,10.6681
3540000000,10.8007,10.6539
3550000000,10.7789,10.6371
3560000000,10.7615,10.6196
3570000000,10.758,10.6049
3580000000,10.7489,10.595
3590000000,10.7206,10.5925
3600000000,10.7117,10.5655
3610000000,10.6977,10.568
3620000000,10.6863,10.5477
3630000000,10.6704,10.5225
3640000000,10.6565,10.5047
3650000000,10.6449,10.4902
3660000000,10.6361,10.4712
3670000000,10.6245,10.4451
3680000000,10.6126,10.4239
3690000000,10.5957,10.3928
3700000000,10.5747,10.3711
3710000000,10.566,10.3507
3720000000,10.545,10.3134
3730000000,10.528,10.2871
3740000000,10.4998,10.2506
3750000000,10.481,10.2218
3760000000,10.4688,10.202
3770000000,10.4365,10.1868
3780000000,10.4153,10.1519
3790000000,10.4,10.1208
3800000000,10.3763,10.0879
3810000000,10.347,10.0572
3820000000,10.32,10.0291
3830000000,10.2983,9.9994
3840000000,10.2725,9.9743
3850000000,10.2426,9.9552
3860000000,10.2243,9.9336
3870000000,10.1997,9.9173
3880000000,10.1808,9.897
3890000000,10.1532,9.8752
3900000000,10.1309,9.8592
3910000000,10.1128,9.8282
3920000000,10.0855,9.8099
3930000000,10.071,9.7979
3940000000,10.0448,9.7922
3950000000,10.0308,9.7795
3960000000,10.013,9.7771
3970000000,10.011,9.783
3980000000,10.0049,9.7509
3990000000,9.9881,9.7457
4000000000,9.9777,9.7294
4010000000,9.9599,9.7023
4020000000,9.9434,9.6969
4030000000,9.9277,9.6795
4040000000,9.919,9.6694
4050000000,9.9153,9.6696
4060000000,9.9052,9.6563
4070000000,9.898,9.6711
4080000000,9.8912,9.6679
4090000000,9.8965,9.6545
4100000000,9.8914,9.6488
4110000000,9.8935,9.6325
4120000000,9.8898,9.6075
4130000000,9.8724,9.598
4140000000,9.8638,9.5781
4150000000,9.8569,9.556
4160000000,9.8461,9.5454
4170000000,9.8412,9.5205
4180000000,9.8312,9.5055
4190000000,9.8201,9.4772
4200000000,9.8105,9.4427
4210000000,9.7955,9.4151
4220000000,9.7797,9.38
4230000000,9.7642,9.3459
4240000000,9.7364,9.3029
4250000000,9.7176,9.2782
4260000000,9.6952,9.2537
4270000000,9.6649,9.2279
4280000000,9.6433,9.1953
4290000000,9.6223,9.1738
4300000000,9.6028,9.1493
4310000000,9.582,9.1219
4320000000,9.5648,9.103
4330000000,9.5447,9.0889
4340000000,9.5245,9.0583
4350000000,9.5071,9.0404
4360000000,9.4961,9.0371
4370000000,9.485,9.0154
4380000000,9.4708,8.9951
4390000000,9.4599,8.9857
4400000000,9.4521,8.9633
4410000000,9.4309,8.9602
4420000000,9.4193,8.9552
4430000000,9.4098,8.9462
4440000000,9.3977,8.9378
4450000000,9.3827,8.9342
4460000000,9.3703,8.9214
4470000000,9.3591,8.9208
4480000000,9.3521,8.9131
4490000000,9.3487,8.9074
4500000000,9.3461,8.9068
4510000000,9.3462,8.9146
4520000000,9.3466,8.9113
4530000000,9.3424,8.9165
4540000000,9.3452,8.9033
4550000000,9.3503,8.8919
4560000000,9.3449,8.8894
4570000000,9.3477,8.8694
4580000000,9.3503,8.8552
4590000000,9.3435,8.8369
4600000000,9.3379,8.8161
4610000000,9.3327,8.8064
4620000000,9.3183,8.7835
4630000000,9.3089,8.7582
4640000000,9.3007,8.7418
4650000000,9.2872,8.7167
4660000000,9.2764,8.6933
4670000000,9.2638,8.6674
4680000000,9.2507,8.648
4690000000,9.2402,8.6239
4700000000,9.2231,8.6063
4710000000,9.2101,8.5911
4720000000,9.1977,8.5659
4730000000,9.1813,8.5421
4740000000,9.1667,8.5139
4750000000,9.1496,8.4851
4760000000,9.1296,8.4658
4770000000,9.1132,8.4373
4780000000,9.0922,8.4116
4790000000,9.0762,8.4044
4800000000,9.0482,8.3993
4810000000,9.0353,8.3928
4820000000,9.0359,8.377
4830000000,9.0299,8.3651
4840000000,9.0204,8.3527
4850000000,9.0088,8.3408
4860000000,9.0002,8.3217
4870000000,8.9899,8.3057
4880000000,8.9599,8.299
4890000000,8.9416,8.2976
4900000000,8.9428,8.3037
4910000000,8.9361,8.298
4920000000,8.9221,8.2937
4930000000,8.9293,8.2969
4940000000,8.9271,8.2847
4950000000,8.9225,8.2736
4960000000,8.9184,8.2735
4970000000,8.9119,8.2521
4980000000,8.8991,8.2514
4990000000,8.9134,8.26
5000000000,8.899,8.2538
