frequency,e',e'',u',u''
1000000000,1.1344,0.0148,0.8826,0.048
1001000000,1.1341,0.0148,0.8829,0.0479
1002000000,1.1338,0.0148,0.8832,0.0479
1003000000,1.1336,0.0148,0.8836,0.0478
1004000000,1.1333,0.0148,0.8839,0.0477
1005000000,1.133,0.0148,0.8842,0.0476
1006000000,1.1327,0.0148,0.8845,0.0476
1007000000,1.1324,0.0148,0.8849,0.0475
1008000000,1.1321,0.0148,0.8852,0.0474
1009000000,1.1319,0.0148,0.8855,0.0473
1010000000,1.1316,0.0148,0.8858,0.0473
1011000000,1.1313,0.0148,0.8862,0.0472
1012000000,1.131,0.0148,0.8865,0.0471
1013000000,1.1308,0.0148,0.8868,0.047
1014000000,1.1305,0.0148,0.8871,0.047
1015000000,1.1302,0.0148,0.8874,0.0469
1016000000,1.1299,0.0148,0.8877,0.0468
1017000000,1.1297,0.0148,0.8881,0.0467
1018000000,1.1294,0.0148,0.8884,0.0467
1019000000,1.1291,0.0148,0.8887,0.0466
1020000000,1.1288,0.0148,0.889,0.0465
1021000000,1.1286,0.0148,0.8893,0.0465
1022000000,1.1283,0.0148,0.8896,0.0464
1023000000,1.128,0.0148,0.8899,0.0463
1024000000,1.1277,0.0148,0.8902,0.0462
1025000000,1.1275,0.0148,0.8906,0.0462
1026000000,1.1272,0.0148,0.8909,0.0461
1027000000,1.1269,0.0148,0.8912,0.046
1028000000,1.1267,0.0148,0.8915,0.046
1029000000,1.1264,0.0148,0.8918,0.0459
1030000000,1.1261,0.0148,0.8921,0.0458
1031000000,1.1259,0.0148,0.8924,0.0457
1032000000,1.1256,0.0147,0.8927,0.0457
1033000000,1.1253,0.0147,0.893,0.0456
1034000000,1.1251,0.0147,0.8934,0.0455
1035000000,1.1248,0.0147,0.8937,0.0455
1036000000,1.1245,0.0147,0.894,0.0454
1037000000,1.1243,0.0147,0.8943,0.0454
1038000000,1.124,0.0147,0.8946,0.0453
1039000000,1.1237,0.0147,0.8949,0.0452
1040000000,1.1235,0.0147,0.8952,0.0452
1041000000,1.1232,0.0147,0.8955,0.0451
1042000000,1.1229,0.0147,0.8958,0.0451
1043000000,1.1227,0.0147,0.8961,0.045
1044000000,1.1224,0.0147,0.8964,0.0449
1045000000,1.1222,0.0147,0.8967,0.0449
1046000000,1.1219,0.0147,0.897,0.0448
1047000000,1.1216,0.0147,0.8973,0.0448
1048000000,1.1214,0.0147,0.8976,0.0447
1049000000,1.1211,0.0147,0.8979,0.0446
1050000000,1.1209,0.0147,0.8982,0.0446
1051000000,1.1206,0.0147,0.8985,0.0445
1052000000,1.1203,0.0147,0.8988,0.0445
1053000000,1.1201,0.0147,0.8991,0.0444
1054000000,1.1198,0.0147,0.8994,0.0444
1055000000,1.1196,0.0147,0.8997,0.0443
1056000000,1.1193,0.0147,0.9,0.0443
1057000000,1.1191,0.0147,0.9003,0.0442
1058000000,1.1188,0.0147,0.9006,0.0442
1059000000,1.1185,0.0147,0.9009,0.0441
1060000000,1.1183,0.0147,0.9011,0.0441
1061000000,1.118,0.0147,0.9014,0.044
1062000000,1.1178,0.0147,0.9017,0.0439
1063000000,1.1175,0.0147,0.902,0.0439
1064000000,1.1173,0.0147,0.9023,0.0438
1065000000,1.117,0.0147,0.9026,0.0438
1066000000,1.1168,0.0146,0.9028,0.0437
1067000000,1.1165,0.0146,0.9031,0.0437
1068000000,1.1163,0.0146,0.9034,0.0436
1069000000,1.116,0.0146,0.9037,0.0436
1070000000,1.1158,0.0146,0.904,0.0435
1071000000,1.1155,0.0146,0.9042,0.0435
1072000000,1.1153,0.0146,0.9045,0.0434
1073000000,1.115,0.0146,0.9048,0.0434
1074000000,1.1148,0.0146,0.9051,0.0433
1075000000,1.1145,0.0146,0.9053,0.0433
1076000000,1.1143,0.0146,0.9056,0.0432
1077000000,1.114,0.0146,0.9059,0.0432
1078000000,1.1138,0.0146,0.9062,0.0431
1079000000,1.1135,0.0146,0.9064,0.0431
1080000000,1.1133,0.0146,0.9067,0.043
1081000000,1.113,0.0146,0.907,0.043
1082000000,1.1128,0.0145,0.9072,0.0429
1083000000,1.1126,0.0145,0.9075,0.0429
1084000000,1.1123,0.0145,0.9078,0.0428
1085000000,1.1121,0.0145,0.908,0.0428
1086000000,1.1118,0.0145,0.9083,0.0427
1087000000,1.1116,0.0145,0.9086,0.0427
1088000000,1.1114,0.0145,0.9088,0.0426
1089000000,1.1111,0.0145,0.9091,0.0426
1090000000,1.1109,0.0145,0.9093,0.0425
1091000000,1.1106,0.0145,0.9096,0.0425
1092000000,1.1104,0.0145,0.9098,0.0424
1093000000,1.1102,0.0145,0.9101,0.0424
1094000000,1.1099,0.0144,0.9104,0.0423
1095000000,1.1097,0.0144,0.9106,0.0423
1096000000,1.1095,0.0144,0.9109,0.0422
1097000000,1.1093,0.0144,0.9111,0.0422
1098000000,1.109,0.0144,0.9114,0.0421
1099000000,1.1088,0.0144,0.9116,0.0421
1100000000,1.1086,0.0144,0.9119,0.042
1101000000,1.1083,0.0144,0.9121,0.042
1102000000,1.1081,0.0144,0.9124,0.0419
1103000000,1.1079,0.0144,0.9126,0.0419
1104000000,1.1077,0.0144,0.9129,0.0418
1105000000,1.1074,0.0144,0.9131,0.0418
1106000000,1.1072,0.0144,0.9134,0.0417
1107000000,1.107,0.0144,0.9136,0.0417
1108000000,1.1068,0.0143,0.9139,0.0416
1109000000,1.1065,0.0143,0.9141,0.0416
1110000000,1.1063,0.0143,0.9144,0.0415
1111000000,1.1061,0.0143,0.9146,0.0415
1112000000,1.1059,0.0143,0.9149,0.0414
1113000000,1.1057,0.0143,0.9151,0.0414
1114000000,1.1054,0.0143,0.9154,0.0413
1115000000,1.1052,0.0143,0.9156,0.0413
1116000000,1.105,0.0143,0.9158,0.0412
1117000000,1.1048,0.0143,0.9161,0.0412
1118000000,1.1046,0.0143,0.9163,0.0411
1119000000,1.1044,0.0143,0.9165,0.0411
1120000000,1.1041,0.0143,0.9168,0.0411
1121000000,1.1039,0.0143,0.917,0.041
1122000000,1.1037,0.0143,0.9172,0.041
1123000000,1.1035,0.0143,0.9175,0.0409
1124000000,1.1033,0.0143,0.9177,0.0409
1125000000,1.1031,0.0142,0.9179,0.0408
1126000000,1.1029,0.0142,0.9182,0.0408
1127000000,1.1026,0.0142,0.9184,0.0407
1128000000,1.1024,0.0142,0.9186,0.0407
1129000000,1.1022,0.0142,0.9189,0.0406
1130000000,1.102,0.0142,0.9191,0.0406
1131000000,1.1018,0.0142,0.9193,0.0405
1132000000,1.1016,0.0142,0.9195,0.0405
1133000000,1.1014,0.0142,0.9198,0.0404
1134000000,1.1012,0.0142,0.92,0.0404
1135000000,1.101,0.0142,0.9202,0.0403
1136000000,1.1008,0.0142,0.9204,0.0403
1137000000,1.1006,0.0142,0.9206,0.0402
1138000000,1.1004,0.0142,0.9209,0.0402
1139000000,1.1002,0.0142,0.9211,0.0401
1140000000,1.0999,0.0142,0.9213,0.0401
1141000000,1.0997,0.0142,0.9215,0.04
1142000000,1.0995,0.0142,0.9217,0.04
1143000000,1.0993,0.0142,0.9219,0.0399
1144000000,1.0991,0.0142,0.9222,0.0399
1145000000,1.0989,0.0142,0.9224,0.0398
1146000000,1.0987,0.0142,0.9226,0.0398
1147000000,1.0985,0.0142,0.9228,0.0397
1148000000,1.0983,0.0142,0.923,0.0397
1149000000,1.0981,0.0142,0.9232,0.0396
1150000000,1.0979,0.0142,0.9234,0.0395
1151000000,1.0977,0.0142,0.9236,0.0395
1152000000,1.0975,0.0142,0.9239,0.0394
1153000000,1.0973,0.0142,0.9241,0.0394
1154000000,1.0971,0.0141,0.9243,0.0393
1155000000,1.097,0.0141,0.9245,0.0393
1156000000,1.0968,0.0141,0.9247,0.0392
1157000000,1.0966,0.0141,0.9249,0.0391
1158000000,1.0964,0.0141,0.9251,0.0391
1159000000,1.0962,0.0141,0.9253,0.039
1160000000,1.096,0.0141,0.9255,0.039
1161000000,1.0958,0.0141,0.9257,0.0389
1162000000,1.0956,0.0141,0.926,0.0388
1163000000,1.0954,0.0141,0.9262,0.0388
1164000000,1.0952,0.0141,0.9264,0.0387
1165000000,1.095,0.0141,0.9266,0.0387
1166000000,1.0948,0.0141,0.9268,0.0386
1167000000,1.0946,0.0141,0.927,0.0386
1168000000,1.0944,0.0141,0.9272,0.0385
1169000000,1.0942,0.0141,0.9274,0.0384
1170000000,1.0941,0.0141,0.9276,0.0384
1171000000,1.0939,0.0141,0.9278,0.0383
1172000000,1.0937,0.0141,0.928,0.0383
1173000000,1.0935,0.0141,0.9282,0.0382
1174000000,1.0933,0.0141,0.9285,0.0381
1175000000,1.0931,0.0141,0.9287,0.0381
1176000000,1.0929,0.0141,0.9289,0.038
1177000000,1.0927,0.0141,0.9291,0.038
1178000000,1.0926,0.0141,0.9293,0.0379
1179000000,1.0924,0.0141,0.9295,0.0379
1180000000,1.0922,0.0141,0.9297,0.0378
1181000000,1.092,0.0141,0.9299,0.0377
1182000000,1.0918,0.0141,0.9301,0.0377
1183000000,1.0916,0.0141,0.9303,0.0376
1184000000,1.0915,0.0141,0.9305,0.0376
1185000000,1.0913,0.0141,0.9307,0.0375
1186000000,1.0911,0.0141,0.9309,0.0374
1187000000,1.0909,0.0141,0.9311,0.0374
1188000000,1.0907,0.0141,0.9313,0.0373
1189000000,1.0905,0.0141,0.9315,0.0373
1190000000,1.0904,0.0141,0.9317,0.0372
1191000000,1.0902,0.0141,0.9319,0.0372
1192000000,1.09,0.0142,0.9321,0.0371
1193000000,1.0898,0.0142,0.9323,0.037
1194000000,1.0896,0.0142,0.9325,0.037
1195000000,1.0895,0.0142,0.9327,0.0369
1196000000,1.0893,0.0142,0.9329,0.0369
1197000000,1.0891,0.0142,0.9331,0.0368
1198000000,1.0889,0.0142,0.9333,0.0367
1199000000,1.0888,0.0142,0.9335,0.0367
1200000000,1.0886,0.0142,0.9337,0.0366
1201000000,1.0884,0.0142,0.9339,0.0366
1202000000,1.0882,0.0142,0.9341,0.0365
1203000000,1.088,0.0142,0.9343,0.0364
1204000000,1.0879,0.0142,0.9345,0.0364
1205000000,1.0877,0.0142,0.9346,0.0363
1206000000,1.0875,0.0142,0.9348,0.0363
1207000000,1.0873,0.0143,0.935,0.0362
1208000000,1.0871,0.0143,0.9352,0.0362
1209000000,1.0869,0.0143,0.9354,0.0361
1210000000,1.0868,0.0143,0.9356,0.036
1211000000,1.0866,0.0143,0.9358,0.036
1212000000,1.0864,0.0143,0.936,0.0359
1213000000,1.0862,0.0143,0.9362,0.0359
1214000000,1.0861,0.0143,0.9364,0.0358
1215000000,1.0859,0.0143,0.9366,0.0357
1216000000,1.0857,0.0143,0.9367,0.0357
1217000000,1.0855,0.0143,0.9369,0.0356
1218000000,1.0854,0.0143,0.9371,0.0356
1219000000,1.0852,0.0143,0.9373,0.0355
1220000000,1.085,0.0143,0.9375,0.0355
1221000000,1.0849,0.0143,0.9377,0.0354
1222000000,1.0847,0.0143,0.9379,0.0353
1223000000,1.0845,0.0143,0.9381,0.0353
1224000000,1.0844,0.0143,0.9382,0.0352
1225000000,1.0842,0.0143,0.9384,0.0352
1226000000,1.084,0.0143,0.9386,0.0351
1227000000,1.0839,0.0143,0.9388,0.035
1228000000,1.0837,0.0143,0.939,0.035
1229000000,1.0835,0.0143,0.9392,0.0349
1230000000,1.0834,0.0143,0.9393,0.0349
1231000000,1.0832,0.0143,0.9395,0.0348
1232000000,1.083,0.0143,0.9397,0.0348
1233000000,1.0829,0.0143,0.9399,0.0347
1234000000,1.0827,0.0143,0.9401,0.0346
1235000000,1.0826,0.0143,0.9402,0.0346
1236000000,1.0824,0.0143,0.9404,0.0345
1237000000,1.0822,0.0143,0.9406,0.0345
1238000000,1.0821,0.0143,0.9408,0.0344
1239000000,1.0819,0.0143,0.941,0.0344
1240000000,1.0818,0.0143,0.9411,0.0343
1241000000,1.0816,0.0144,0.9413,0.0343
1242000000,1.0814,0.0144,0.9415,0.0342
1243000000,1.0813,0.0144,0.9417,0.0341
1244000000,1.0811,0.0144,0.9418,0.0341
1245000000,1.081,0.0144,0.942,0.034
1246000000,1.0808,0.0144,0.9422,0.034
1247000000,1.0807,0.0144,0.9424,0.0339
1248000000,1.0805,0.0144,0.9425,0.0339
1249000000,1.0804,0.0144,0.9427,0.0338
1250000000,1.0802,0.0144,0.9429,0.0338
1251000000,1.0801,0.0144,0.943,0.0337
1252000000,1.0799,0.0144,0.9432,0.0337
1253000000,1.0798,0.0144,0.9434,0.0336
1254000000,1.0796,0.0144,0.9435,0.0336
1255000000,1.0795,0.0144,0.9437,0.0335
1256000000,1.0793,0.0144,0.9439,0.0335
1257000000,1.0792,0.0144,0.944,0.0334
1258000000,1.079,0.0145,0.9442,0.0334
1259000000,1.0789,0.0145,0.9444,0.0333
1260000000,1.0787,0.0145,0.9445,0.0333
1261000000,1.0786,0.0145,0.9447,0.0332
1262000000,1.0784,0.0145,0.9449,0.0332
1263000000,1.0783,0.0145,0.945,0.0331
1264000000,1.0781,0.0145,0.9452,0.0331
1265000000,1.078,0.0145,0.9453,0.033
1266000000,1.0778,0.0145,0.9455,0.033
1267000000,1.0777,0.0145,0.9456,0.0329
1268000000,1.0775,0.0145,0.9458,0.0329
1269000000,1.0774,0.0145,0.946,0.0328
1270000000,1.0772,0.0145,0.9461,0.0328
1271000000,1.0771,0.0145,0.9463,0.0327
1272000000,1.0769,0.0145,0.9464,0.0327
1273000000,1.0768,0.0146,0.9466,0.0326
1274000000,1.0767,0.0146,0.9467,0.0326
1275000000,1.0765,0.0146,0.9469,0.0325
1276000000,1.0764,0.0146,0.947,0.0325
1277000000,1.0762,0.0146,0.9472,0.0324
1278000000,1.0761,0.0146,0.9473,0.0323
1279000000,1.0759,0.0146,0.9475,0.0323
1280000000,1.0758,0.0146,0.9476,0.0322
1281000000,1.0757,0.0146,0.9477,0.0322
1282000000,1.0755,0.0146,0.9479,0.0321
1283000000,1.0754,0.0146,0.948,0.0321
1284000000,1.0752,0.0146,0.9482,0.032
1285000000,1.0751,0.0146,0.9483,0.032
1286000000,1.075,0.0146,0.9485,0.0319
1287000000,1.0748,0.0146,0.9486,0.0319
1288000000,1.0747,0.0146,0.9488,0.0318
1289000000,1.0746,0.0146,0.9489,0.0317
1290000000,1.0744,0.0147,0.9491,0.0317
1291000000,1.0743,0.0147,0.9492,0.0316
1292000000,1.0741,0.0147,0.9493,0.0316
1293000000,1.074,0.0147,0.9495,0.0315
1294000000,1.0739,0.0147,0.9496,0.0315
1295000000,1.0737,0.0147,0.9498,0.0314
1296000000,1.0736,0.0147,0.9499,0.0314
1297000000,1.0735,0.0147,0.9501,0.0313
1298000000,1.0733,0.0147,0.9502,0.0313
1299000000,1.0732,0.0147,0.9503,0.0312
1300000000,1.0731,0.0147,0.9505,0.0312
1301000000,1.073,0.0147,0.9506,0.0311
1302000000,1.0728,0.0147,0.9508,0.0311
1303000000,1.0727,0.0147,0.9509,0.031
1304000000,1.0726,0.0147,0.9511,0.031
1305000000,1.0724,0.0147,0.9512,0.0309
1306000000,1.0723,0.0147,0.9513,0.0309
1307000000,1.0722,0.0147,0.9515,0.0308
1308000000,1.0721,0.0147,0.9516,0.0308
1309000000,1.0719,0.0147,0.9518,0.0307
1310000000,1.0718,0.0147,0.9519,0.0307
1311000000,1.0717,0.0147,0.952,0.0306
1312000000,1.0716,0.0147,0.9522,0.0306
1313000000,1.0714,0.0147,0.9523,0.0305
1314000000,1.0713,0.0147,0.9525,0.0305
1315000000,1.0712,0.0147,0.9526,0.0304
1316000000,1.071,0.0147,0.9527,0.0304
1317000000,1.0709,0.0147,0.9529,0.0303
1318000000,1.0708,0.0147,0.953,0.0303
1319000000,1.0707,0.0147,0.9532,0.0302
1320000000,1.0706,0.0147,0.9533,0.0302
1321000000,1.0704,0.0147,0.9534,0.0301
1322000000,1.0703,0.0148,0.9536,0.0301
1323000000,1.0702,0.0148,0.9537,0.03
1324000000,1.0701,0.0148,0.9538,0.03
1325000000,1.0699,0.0148,0.954,0.0299
1326000000,1.0698,0.0148,0.9541,0.0299
1327000000,1.0697,0.0148,0.9542,0.0299
1328000000,1.0696,0.0148,0.9544,0.0298
1329000000,1.0694,0.0148,0.9545,0.0298
1330000000,1.0693,0.0148,0.9546,0.0297
1331000000,1.0692,0.0148,0.9548,0.0297
1332000000,1.0691,0.0148,0.9549,0.0296
1333000000,1.069,0.0148,0.955,0.0296
1334000000,1.0688,0.0148,0.9552,0.0295
1335000000,1.0687,0.0148,0.9553,0.0295
1336000000,1.0686,0.0148,0.9554,0.0294
1337000000,1.0685,0.0148,0.9556,0.0294
1338000000,1.0683,0.0148,0.9557,0.0294
1339000000,1.0682,0.0148,0.9558,0.0293
1340000000,1.0681,0.0148,0.956,0.0293
1341000000,1.068,0.0148,0.9561,0.0292
1342000000,1.0679,0.0148,0.9562,0.0292
1343000000,1.0677,0.0148,0.9564,0.0291
1344000000,1.0676,0.0149,0.9565,0.0291
1345000000,1.0675,0.0149,0.9566,0.029
1346000000,1.0674,0.0149,0.9568,0.029
1347000000,1.0673,0.0149,0.9569,0.029
1348000000,1.0671,0.0149,0.957,0.0289
1349000000,1.067,0.0149,0.9572,0.0289
1350000000,1.0669,0.0149,0.9573,0.0288
1351000000,1.0668,0.0149,0.9574,0.0288
1352000000,1.0667,0.0149,0.9575,0.0287
1353000000,1.0665,0.0149,0.9577,0.0287
1354000000,1.0664,0.0149,0.9578,0.0286
1355000000,1.0663,0.0149,0.9579,0.0286
1356000000,1.0662,0.0149,0.9581,0.0286
1357000000,1.0661,0.0149,0.9582,0.0285
1358000000,1.0659,0.0149,0.9583,0.0285
1359000000,1.0658,0.0149,0.9585,0.0284
1360000000,1.0657,0.0149,0.9586,0.0284
1361000000,1.0656,0.0149,0.9587,0.0284
1362000000,1.0655,0.0149,0.9588,0.0283
1363000000,1.0654,0.0149,0.959,0.0283
1364000000,1.0652,0.0149,0.9591,0.0282
1365000000,1.0651,0.0149,0.9592,0.0282
1366000000,1.065,0.0149,0.9594,0.0282
1367000000,1.0649,0.0149,0.9595,0.0281
1368000000,1.0648,0.0149,0.9596,0.0281
1369000000,1.0647,0.0149,0.9597,0.0281
1370000000,1.0645,0.0149,0.9599,0.028
1371000000,1.0644,0.0149,0.96,0.028
1372000000,1.0643,0.0149,0.9601,0.0279
1373000000,1.0642,0.0149,0.9602,0.0279
1374000000,1.0641,0.0149,0.9604,0.0279
1375000000,1.064,0.0149,0.9605,0.0278
1376000000,1.0639,0.0149,0.9606,0.0278
1377000000,1.0637,0.0149,0.9607,0.0278
1378000000,1.0636,0.0149,0.9609,0.0277
1379000000,1.0635,0.0149,0.961,0.0277
1380000000,1.0634,0.0149,0.9611,0.0277
1381000000,1.0633,0.0149,0.9612,0.0276
1382000000,1.0632,0.0149,0.9613,0.0276
1383000000,1.0631,0.0149,0.9615,0.0276
1384000000,1.0629,0.015,0.9616,0.0275
1385000000,1.0628,0.015,0.9617,0.0275
1386000000,1.0627,0.015,0.9618,0.0275
1387000000,1.0626,0.015,0.962,0.0274
1388000000,1.0625,0.015,0.9621,0.0274
1389000000,1.0624,0.015,0.9622,0.0274
1390000000,1.0623,0.015,0.9623,0.0273
1391000000,1.0622,0.015,0.9624,0.0273
1392000000,1.062,0.015,0.9626,0.0273
1393000000,1.0619,0.015,0.9627,0.0272
1394000000,1.0618,0.015,0.9628,0.0272
1395000000,1.0617,0.015,0.9629,0.0272
1396000000,1.0616,0.015,0.963,0.0271
1397000000,1.0615,0.015,0.9631,0.0271
1398000000,1.0614,0.015,0.9632,0.0271
1399000000,1.0613,0.015,0.9634,0.0271
1400000000,1.0612,0.015,0.9635,0.027
1401000000,1.061,0.015,0.9636,0.027
1402000000,1.0609,0.015,0.9637,0.027
1403000000,1.0608,0.015,0.9638,0.0269
1404000000,1.0607,0.015,0.9639,0.0269
1405000000,1.0606,0.015,0.964,0.0269
1406000000,1.0605,0.015,0.9641,0.0268
1407000000,1.0604,0.015,0.9642,0.0268
1408000000,1.0603,0.015,0.9643,0.0268
1409000000,1.0602,0.015,0.9644,0.0267
1410000000,1.0601,0.015,0.9646,0.0267
1411000000,1.06,0.0149,0.9647,0.0267
1412000000,1.0598,0.0149,0.9648,0.0266
1413000000,1.0597,0.0149,0.9649,0.0266
1414000000,1.0596,0.0149,0.965,0.0266
1415000000,1.0595,0.0149,0.9651,0.0265
1416000000,1.0594,0.0149,0.9652,0.0265
1417000000,1.0593,0.0149,0.9653,0.0265
1418000000,1.0592,0.0149,0.9654,0.0264
1419000000,1.0591,0.0149,0.9655,0.0264
1420000000,1.059,0.0149,0.9656,0.0264
1421000000,1.0589,0.0149,0.9657,0.0263
1422000000,1.0588,0.0149,0.9658,0.0263
1423000000,1.0587,0.0149,0.9659,0.0263
1424000000,1.0586,0.0149,0.966,0.0262
1425000000,1.0585,0.0149,0.9661,0.0262
1426000000,1.0584,0.0149,0.9663,0.0262
1427000000,1.0583,0.0149,0.9664,0.0261
1428000000,1.0582,0.0149,0.9665,0.0261
1429000000,1.0581,0.0149,0.9666,0.0261
1430000000,1.058,0.0149,0.9667,0.026
1431000000,1.0579,0.0149,0.9668,0.026
1432000000,1.0578,0.0148,0.9669,0.026
1433000000,1.0577,0.0148,0.967,0.026
1434000000,1.0576,0.0148,0.9671,0.0259
1435000000,1.0575,0.0148,0.9672,0.0259
1436000000,1.0574,0.0148,0.9673,0.0259
1437000000,1.0573,0.0148,0.9674,0.0258
1438000000,1.0572,0.0148,0.9675,0.0258
1439000000,1.0571,0.0148,0.9676,0.0258
1440000000,1.057,0.0148,0.9677,0.0257
1441000000,1.0569,0.0148,0.9678,0.0257
1442000000,1.0568,0.0148,0.9679,0.0257
1443000000,1.0567,0.0148,0.968,0.0256
1444000000,1.0566,0.0148,0.9681,0.0256
1445000000,1.0565,0.0148,0.9682,0.0256
1446000000,1.0564,0.0148,0.9683,0.0255
1447000000,1.0563,0.0148,0.9684,0.0255
1448000000,1.0562,0.0148,0.9685,0.0255
1449000000,1.0561,0.0148,0.9686,0.0254
1450000000,1.056,0.0148,0.9687,0.0254
1451000000,1.0559,0.0148,0.9688,0.0254
1452000000,1.0558,0.0148,0.9689,0.0254
1453000000,1.0557,0.0148,0.969,0.0253
1454000000,1.0556,0.0148,0.9691,0.0253
1455000000,1.0555,0.0148,0.9692,0.0253
1456000000,1.0554,0.0148,0.9693,0.0252
1457000000,1.0553,0.0147,0.9694,0.0252
1458000000,1.0552,0.0147,0.9695,0.0252
1459000000,1.0552,0.0147,0.9696,0.0251
1460000000,1.0551,0.0147,0.9697,0.0251
1461000000,1.055,0.0147,0.9698,0.0251
1462000000,1.0549,0.0147,0.9699,0.025
1463000000,1.0548,0.0147,0.97,0.025
1464000000,1.0547,0.0147,0.9701,0.025
1465000000,1.0546,0.0147,0.9702,0.0249
1466000000,1.0545,0.0147,0.9703,0.0249
1467000000,1.0544,0.0147,0.9704,0.0249
1468000000,1.0543,0.0147,0.9704,0.0248
1469000000,1.0542,0.0147,0.9705,0.0248
1470000000,1.0541,0.0147,0.9706,0.0248
1471000000,1.054,0.0147,0.9707,0.0248
1472000000,1.0539,0.0147,0.9708,0.0247
1473000000,1.0538,0.0147,0.9709,0.0247
1474000000,1.0538,0.0147,0.971,0.0247
1475000000,1.0537,0.0147,0.9711,0.0246
1476000000,1.0536,0.0147,0.9712,0.0246
1477000000,1.0535,0.0147,0.9713,0.0246
1478000000,1.0534,0.0147,0.9714,0.0245
1479000000,1.0533,0.0147,0.9715,0.0245
1480000000,1.0532,0.0147,0.9716,0.0245
1481000000,1.0531,0.0147,0.9717,0.0244
1482000000,1.053,0.0147,0.9718,0.0244
1483000000,1.0529,0.0147,0.9719,0.0244
1484000000,1.0528,0.0147,0.9719,0.0244
1485000000,1.0527,0.0147,0.972,0.0243
1486000000,1.0527,0.0147,0.9721,0.0243
1487000000,1.0526,0.0147,0.9722,0.0243
1488000000,1.0525,0.0147,0.9723,0.0242
1489000000,1.0524,0.0147,0.9724,0.0242
1490000000,1.0523,0.0147,0.9725,0.0242
1491000000,1.0522,0.0147,0.9726,0.0241
1492000000,1.0521,0.0146,0.9727,0.0241
1493000000,1.052,0.0146,0.9728,0.0241
1494000000,1.0519,0.0146,0.9729,0.0241
1495000000,1.0518,0.0146,0.973,0.024
1496000000,1.0518,0.0146,0.973,0.024
1497000000,1.0517,0.0146,0.9731,0.024
1498000000,1.0516,0.0146,0.9732,0.0239
1499000000,1.0515,0.0146,0.9733,0.0239
1500000000,1.0514,0.0146,0.9734,0.0239
1501000000,1.0513,0.0146,0.9735,0.0238
1502000000,1.0512,0.0146,0.9736,0.0238
1503000000,1.0511,0.0146,0.9737,0.0238
1504000000,1.0511,0.0146,0.9738,0.0238
1505000000,1.051,0.0146,0.9738,0.0237
1506000000,1.0509,0.0146,0.9739,0.0237
1507000000,1.0508,0.0146,0.974,0.0237
1508000000,1.0507,0.0146,0.9741,0.0236
1509000000,1.0506,0.0146,0.9742,0.0236
1510000000,1.0505,0.0146,0.9743,0.0236
1511000000,1.0504,0.0146,0.9744,0.0236
1512000000,1.0504,0.0146,0.9745,0.0235
1513000000,1.0503,0.0146,0.9745,0.0235
1514000000,1.0502,0.0146,0.9746,0.0235
1515000000,1.0501,0.0146,0.9747,0.0234
1516000000,1.05,0.0146,0.9748,0.0234
